# SAXS profile: number of points = 501, q_min = 0, q_max = 0.5, delta_q = 0.001
#    q    intensity 
0.00000    68462064.00000000 41715340.00000000 106882136.00000000 43445.87500000  3449316.25000000 2692468.25000000 
0.00100    68455208.00000000 41710900.00000000 106870584.00000000 43439.88671875  3448880.50000000 2692131.75000000 
0.00200    68434080.00000000 41697480.00000000 106836728.00000000 43421.48046875  3447589.25000000 2691134.75000000 
0.00300    68397952.00000000 41675348.00000000 106779384.00000000 43391.16796875  3445452.75000000 2689466.00000000 
0.00400    68346600.00000000 41644192.00000000 106699312.00000000 43348.76171875  3442442.00000000 2687128.75000000 
0.00500    68280384.00000000 41604424.00000000 106597312.00000000 43294.21093750  3438584.25000000 2684135.00000000 
0.00600    68199720.00000000 41556180.00000000 106471832.00000000 43227.76171875  3433873.25000000 2680466.25000000 
0.00700    68104496.00000000 41498940.00000000 106324240.00000000 43149.11328125  3428304.50000000 2676159.75000000 
0.00800    67993848.00000000 41433072.00000000 106154352.00000000 43058.78906250  3421904.75000000 2671181.75000000 
0.00900    67869416.00000000 41358204.00000000 105962456.00000000 42956.66015625  3414661.00000000 2665555.00000000 
0.01000    67731128.00000000 41275140.00000000 105748104.00000000 42842.64843750  3406595.25000000 2659277.75000000 
0.01100    67579136.00000000 41183428.00000000 105510672.00000000 42717.02343750  3397688.00000000 2652384.00000000 
0.01200    67413240.00000000 41083308.00000000 105252064.00000000 42579.97265625  3387974.25000000 2644827.50000000 
0.01300    67232200.00000000 40974436.00000000 104972680.00000000 42431.45312500  3377446.50000000 2636640.75000000 
0.01400    67037712.00000000 40857564.00000000 104670952.00000000 42271.66796875  3366101.50000000 2627831.25000000 
0.01500    66829604.00000000 40732200.00000000 104348152.00000000 42100.69140625  3353966.50000000 2618406.75000000 
0.01600    66608076.00000000 40598920.00000000 104004200.00000000 41918.84375000  3341049.50000000 2608367.00000000 
0.01700    66372636.00000000 40457588.00000000 103639376.00000000 41725.97656250  3327362.50000000 2597733.75000000 
0.01800    66124504.00000000 40308096.00000000 103254056.00000000 41522.69531250  3312910.75000000 2586505.50000000 
0.01900    65863024.00000000 40151144.00000000 102848520.00000000 41308.46875000  3297685.00000000 2574688.75000000 
0.02000    65588772.00000000 39986044.00000000 102423032.00000000 41084.40234375  3281735.00000000 2562282.25000000 
0.02100    65301848.00000000 39813396.00000000 101977984.00000000 40849.88671875  3265045.75000000 2549328.50000000 
0.02200    65002184.00000000 39632844.00000000 101513016.00000000 40605.43750000  3247648.25000000 2535807.25000000 
0.02300    64690392.00000000 39445284.00000000 101028920.00000000 40351.30078125  3229538.00000000 2521738.00000000 
0.02400    64366676.00000000 39250424.00000000 100526968.00000000 40087.67578125  3210737.00000000 2507134.00000000 
0.02500    64030804.00000000 39048472.00000000 100005944.00000000 39814.78906250  3191273.50000000 2491988.75000000 
0.02600    63683424.00000000 38839448.00000000 99466680.00000000 39532.44921875  3171122.50000000 2476350.25000000 
0.02700    63324604.00000000 38623504.00000000 98909912.00000000 39241.51562500  3150341.00000000 2460195.00000000 
0.02800    62954764.00000000 38400692.00000000 98336056.00000000 38942.01953125  3128932.50000000 2443556.75000000 
0.02900    62573848.00000000 38171404.00000000 97745168.00000000 38634.04296875  3106894.75000000 2426429.00000000 
0.03000    62182336.00000000 37935620.00000000 97137760.00000000 38317.80078125  3084259.00000000 2408848.50000000 
0.03100    61780364.00000000 37693840.00000000 96513824.00000000 37994.09765625  3061051.50000000 2390805.75000000 
0.03200    61368408.00000000 37445680.00000000 95874304.00000000 37662.19531250  3037268.00000000 2372328.25000000 
0.03300    60946612.00000000 37191560.00000000 95219416.00000000 37323.32031250  3012942.00000000 2353421.50000000 
0.03400    60514984.00000000 36931752.00000000 94550104.00000000 36977.12890625  2988084.50000000 2334091.25000000 
0.03500    60074212.00000000 36666216.00000000 93865736.00000000 36624.22656250  2962706.25000000 2314365.25000000 
0.03600    59624644.00000000 36395528.00000000 93167640.00000000 36264.66015625  2936833.50000000 2294256.00000000 
0.03700    59165964.00000000 36119332.00000000 92455648.00000000 35898.96093750  2910476.50000000 2273778.25000000 
0.03800    58699092.00000000 35838008.00000000 91730864.00000000 35527.12109375  2883678.00000000 2252933.75000000 
0.03900    58224064.00000000 35551764.00000000 90993584.00000000 35149.65234375  2856436.00000000 2231755.00000000 
0.04000    57741356.00000000 35260676.00000000 90243912.00000000 34766.58203125  2828753.00000000 2210231.00000000 
0.04100    57250760.00000000 34965192.00000000 89482520.00000000 34378.40625000  2800676.00000000 2188405.25000000 
0.04200    56752936.00000000 34665420.00000000 88709952.00000000 33985.50390625  2772223.75000000 2166281.50000000 
0.04300    56248540.00000000 34361196.00000000 87926336.00000000 33587.95312500  2743408.50000000 2143876.00000000 
0.04400    55737180.00000000 34053120.00000000 87132592.00000000 33186.00390625  2714240.00000000 2121191.00000000 
0.04500    55219964.00000000 33741316.00000000 86329200.00000000 32780.19140625  2684741.00000000 2098262.25000000 
0.04600    54696400.00000000 33425640.00000000 85515752.00000000 32370.62109375  2654962.00000000 2075095.62500000 
0.04700    54167292.00000000 33106646.00000000 84694128.00000000 31957.67968750  2624866.50000000 2051690.87500000 
0.04800    53632700.00000000 32784368.00000000 83864416.00000000 31541.59179688  2594521.50000000 2028089.50000000 
0.04900    53093112.00000000 32458912.00000000 83026264.00000000 31122.55468750  2563919.75000000 2004289.87500000 
0.05000    52549084.00000000 32130716.00000000 82180832.00000000 30701.08593750  2533091.75000000 1980312.75000000 
0.05100    52000316.00000000 31799800.00000000 81328728.00000000 30277.32226562  2502050.50000000 1956175.50000000 
0.05200    51447616.00000000 31466296.00000000 80469984.00000000 29851.57617188  2470828.50000000 1931881.12500000 
0.05300    50891216.00000000 31130488.00000000 79605272.00000000 29423.95507812  2439430.25000000 1907453.62500000 
0.05400    50331152.00000000 30792598.00000000 78735192.00000000 28995.09375000  2407889.50000000 1882906.50000000 
0.05500    49767952.00000000 30452650.00000000 77860064.00000000 28565.01171875  2376212.25000000 1858254.37500000 
0.05600    49201776.00000000 30111094.00000000 76980760.00000000 28134.01562500  2344409.50000000 1833515.37500000 
0.05700    48633356.00000000 29767754.00000000 76097304.00000000 27702.45312500  2312525.75000000 1808702.12500000 
0.05800    48062524.00000000 29423142.00000000 75209952.00000000 27270.50781250  2280555.25000000 1783825.12500000 
0.05900    47489820.00000000 29077312.00000000 74319584.00000000 26838.44921875  2248527.00000000 1758891.12500000 
0.06000    46915512.00000000 28730496.00000000 73427040.00000000 26406.57031250  2216472.25000000 1733935.12500000 
0.06100    46339596.00000000 28382790.00000000 72531944.00000000 25975.10156250  2184364.50000000 1708958.62500000 
0.06200    45762916.00000000 28034334.00000000 71635216.00000000 25544.25390625  2152273.25000000 1683966.50000000 
0.06300    45185488.00000000 27685420.00000000 70737824.00000000 25114.51562500  2120190.75000000 1658987.25000000 
0.06400    44607524.00000000 27336086.00000000 69839032.00000000 24685.66210938  2088136.25000000 1634021.75000000 
0.06500    44029324.00000000 26986676.00000000 68939784.00000000 24258.32617188  2056116.62500000 1609105.50000000 
0.06600    43451144.00000000 26637178.00000000 68041000.00000000 23832.62304688  2024168.12500000 1584224.50000000 
0.06700    42873464.00000000 26287910.00000000 67142448.00000000 23408.60937500  1992296.50000000 1559402.12500000 
0.06800    42296356.00000000 25938994.00000000 66245092.00000000 22986.85546875  1960513.37500000 1534646.75000000 
0.06900    41720216.00000000 25590532.00000000 65348768.00000000 22567.25390625  1928843.25000000 1509976.87500000 
0.07000    41145012.00000000 25242676.00000000 64454348.00000000 22150.00000000  1897291.62500000 1485396.75000000 
0.07100    40571280.00000000 24895578.00000000 63561768.00000000 21735.43750000  1865877.75000000 1460921.62500000 
0.07200    39999204.00000000 24549472.00000000 62671800.00000000 21323.80273438  1834614.75000000 1436572.12500000 
0.07300    39429052.00000000 24204492.00000000 61784828.00000000 20915.17968750  1803521.00000000 1412340.62500000 
0.07400    38861184.00000000 23860600.00000000 60901172.00000000 20509.71289062  1772599.50000000 1388248.25000000 
0.07500    38295336.00000000 23518306.00000000 60020872.00000000 20107.71679688  1741870.50000000 1364301.25000000 
0.07600    37732332.00000000 23177246.00000000 59144404.00000000 19709.10742188  1711346.62500000 1340507.00000000 
0.07700    37172052.00000000 22837964.00000000 58272596.00000000 19314.43554688  1681037.50000000 1316893.00000000 
0.07800    36614808.00000000 22500446.00000000 57405088.00000000 18923.41210938  1650953.12500000 1293435.12500000 
0.07900    36060900.00000000 22164760.00000000 56542700.00000000 18536.48046875  1621112.50000000 1270170.37500000 
0.08000    35510208.00000000 21831084.00000000 55685488.00000000 18153.68750000  1591519.62500000 1247099.00000000 
0.08100    34963280.00000000 21499772.00000000 54833760.00000000 17775.11718750  1562182.87500000 1224230.87500000 
0.08200    34419916.00000000 21170496.00000000 53987948.00000000 17400.91601562  1533121.12500000 1201566.12500000 
0.08300    33880656.00000000 20843518.00000000 53148200.00000000 17031.26757812  1504335.00000000 1179114.25000000 
0.08400    33345796.00000000 20519138.00000000 52314788.00000000 16666.25390625  1475838.25000000 1156891.37500000 
0.08500    32814830.00000000 20197316.00000000 51487820.00000000 16305.94238281  1447642.25000000 1134890.87500000 
0.08600    32288678.00000000 19878012.00000000 50668172.00000000 15950.31250000  1419745.25000000 1113129.12500000 
0.08700    31767038.00000000 19561492.00000000 49855352.00000000 15599.77734375  1392163.87500000 1091611.25000000 
0.08800    31250112.00000000 19247848.00000000 49050060.00000000 15254.10839844  1364905.87500000 1070334.75000000 
0.08900    30738154.00000000 18937128.00000000 48252092.00000000 14913.44433594  1337965.62500000 1049318.00000000 
0.09000    30231184.00000000 18629284.00000000 47462180.00000000 14577.93750000  1311356.87500000 1028553.81250000 
0.09100    29729390.00000000 18324594.00000000 46680104.00000000 14247.61328125  1285092.12500000 1008049.87500000 
0.09200    29232840.00000000 18023084.00000000 45906236.00000000 13922.48339844  1259166.75000000 987812.50000000 
0.09300    28741696.00000000 17724708.00000000 45140688.00000000 13602.69531250  1233593.25000000 967847.56250000 
0.09400    28256096.00000000 17429590.00000000 44383440.00000000 13288.12597656  1208369.37500000 948157.25000000 
0.09500    27775908.00000000 17137804.00000000 43634748.00000000 12978.99804688  1183508.12500000 928739.56250000 
0.09600    27301566.00000000 16849478.00000000 42895068.00000000 12675.16308594  1159002.87500000 909602.56250000 
0.09700    26832944.00000000 16564605.00000000 42164236.00000000 12376.83691406  1134863.12500000 890750.75000000 
0.09800    26370210.00000000 16283118.00000000 41442520.00000000 12083.79003906  1111094.75000000 872182.93750000 
0.09900    25913340.00000000 16005284.00000000 40729840.00000000 11796.28906250  1087689.62500000 853901.00000000 
0.10000    25462340.00000000 15730986.00000000 40026368.00000000 11514.12695312  1064657.50000000 835905.12500000 
0.10100    25017468.00000000 15460205.00000000 39332212.00000000 11237.40820312  1041994.62500000 818199.75000000 
0.10200    24578712.00000000 15193131.00000000 38647628.00000000 10966.17382812  1019712.56250000 800783.25000000 
0.10300    24145980.00000000 14929729.00000000 37972224.00000000 10700.26367188  997803.25000000 783663.56250000 
0.10400    23719468.00000000 14669995.00000000 37306760.00000000 10439.77734375  976267.50000000 766828.56250000 
0.10500    23299192.00000000 14414017.00000000 36650608.00000000 10184.71093750  955113.81250000 750291.43750000 
0.10600    22884950.00000000 14161672.00000000 36004036.00000000 9934.94335938   934323.37500000 734040.00000000 
0.10700    22477080.00000000 13913157.00000000 35367316.00000000 9690.47070312   913917.37500000 718083.50000000 
0.10800    22075428.00000000 13668361.00000000 34740028.00000000 9451.26757812   893886.87500000 702416.62500000 
0.10900    21679956.00000000 13427374.00000000 34122700.00000000 9217.31933594   874223.56250000 687038.75000000 
0.11000    21290870.00000000 13190056.00000000 33514726.00000000 8988.62695312   854937.25000000 671951.18750000 
0.11100    20907886.00000000 12956578.00000000 32916952.00000000 8764.96875000   836018.93750000 657152.43750000 
0.11200    20531322.00000000 12726837.00000000 32328352.00000000 8546.41699219   817459.75000000 642635.50000000 
0.11300    20160874.00000000 12500828.00000000 31749702.00000000 8332.95214844   799274.18750000 628405.93750000 
0.11400    19796722.00000000 12278561.00000000 31180728.00000000 8124.45654297   781451.87500000 614453.68750000 
0.11500    19438558.00000000 12060034.00000000 30621238.00000000 7920.84130859   763987.18750000 600787.43750000 
0.11600    19086856.00000000 11845295.00000000 30071474.00000000 7722.10009766   746875.50000000 587393.75000000 
0.11700    18741164.00000000 11634145.00000000 29531072.00000000 7528.15478516   730122.37500000 574280.12500000 
0.11800    18401400.00000000 11426694.00000000 29000226.00000000 7338.94482422   713712.00000000 561431.31250000 
0.11900    18067810.00000000 11222935.00000000 28478790.00000000 7154.32812500   697649.87500000 548855.43750000 
0.12000    17740236.00000000 11022743.00000000 27966526.00000000 6974.26269531   681929.50000000 536547.50000000 
0.12100    17418860.00000000 10826276.00000000 27463754.00000000 6798.74267578   666548.62500000 524500.75000000 
0.12200    17102954.00000000 10633268.00000000 26970080.00000000 6627.61083984   651498.87500000 512712.68750000 
0.12300    16793208.00000000 10443836.00000000 26485514.00000000 6460.86132812   636775.75000000 501179.59375000 
0.12400    16489140.00000000 10257905.00000000 26009976.00000000 6298.33642578   622377.06250000 489902.00000000 
0.12500    16190779.00000000 10075430.00000000 25543270.00000000 6139.95263672   608296.87500000 478869.12500000 
0.12600    15898146.00000000 9896425.00000000 25085562.00000000 5985.67333984   594536.06250000 468085.46875000 
0.12700    15611118.00000000 9720750.00000000 24636520.00000000 5835.41113281   581079.00000000 457540.46875000 
0.12800    15329615.00000000 9548510.00000000 24195956.00000000 5689.07128906   567928.56250000 447231.09375000 
0.12900    15053562.00000000 9379502.00000000 23764112.00000000 5546.58154297   555075.18750000 437156.28125000 
0.13000    14782912.00000000 9213860.00000000 23340616.00000000 5407.81250000   542516.12500000 427310.78125000 
0.13100    14517543.00000000 9051309.00000000 22925174.00000000 5272.69580078   530242.18750000 417687.46875000 
0.13200    14257446.00000000 8892000.00000000 22518046.00000000 5141.17382812   518245.87500000 408287.28125000 
0.13300    14002465.00000000 8735907.00000000 22118906.00000000 5013.15332031   506536.15625000 399101.00000000 
0.13400    13752568.00000000 8582743.00000000 21727598.00000000 4888.49902344   495092.53125000 390125.06250000 
0.13500    13507568.00000000 8432680.00000000 21344224.00000000 4767.17089844   483911.96875000 381360.00000000 
0.13600    13267569.00000000 8285592.00000000 20968306.00000000 4649.08398438   472992.43750000 372794.46875000 
0.13700    13032420.00000000 8141376.50000000 20599902.00000000 4534.13720703   462328.50000000 364429.37500000 
0.13800    12801884.00000000 8000060.00000000 20239080.00000000 4422.23095703   451910.87500000 356254.75000000 
0.13900    12576007.00000000 7861561.50000000 19885246.00000000 4313.32177734   441736.62500000 348272.81250000 
0.14000    12354735.00000000 7725878.50000000 19538662.00000000 4207.31640625   431799.62500000 340475.62500000 
0.14100    12137872.00000000 7592891.50000000 19199078.00000000 4104.10742188   422093.06250000 332859.96875000 
0.14200    11925349.00000000 7462519.00000000 18866070.00000000 4003.64892578   412612.65625000 325419.87500000 
0.14300    11717103.00000000 7334753.50000000 18539904.00000000 3905.81005859   403350.09375000 318152.87500000 
0.14400    11513096.00000000 7209566.50000000 18220234.00000000 3810.54760742   394301.15625000 311048.96875000 
0.14500    11313111.00000000 7086910.50000000 17906832.00000000 3717.79418945   385464.59375000 304112.15625000 
0.14600    11117138.00000000 6966598.00000000 17599836.00000000 3627.47314453   376830.59375000 297333.75000000 
0.14700    10925191.00000000 6848753.50000000 17298992.00000000 3539.47973633   368396.78125000 290711.75000000 
0.14800    10736952.00000000 6733219.50000000 17003960.00000000 3453.74902344   360152.12500000 284238.21875000 
0.14900    10552411.00000000 6619964.00000000 16714856.00000000 3370.22607422   352093.71875000 277912.15625000 
0.15000    10371569.00000000 6508947.00000000 16431418.00000000 3288.84472656   344219.06250000 271728.03125000 
0.15100    10194291.00000000 6400059.00000000 16153560.00000000 3209.52001953   336519.59375000 265682.81250000 
0.15200    10020479.00000000 6293303.00000000 15881151.00000000 3132.20483398   328995.90625000 259773.79687500 
0.15300    9850079.00000000 6188673.50000000 15614022.00000000 3056.81494141   321637.75000000 253994.14062500 
0.15400    9682871.00000000 6086019.00000000 15351921.00000000 2983.28955078   314438.75000000 248339.87500000 
0.15500    9518919.00000000 5985298.00000000 15094915.00000000 2911.57250977   307400.50000000 242811.12500000 
0.15600    9358069.00000000 5886493.00000000 14842776.00000000 2841.62353516   300513.00000000 237400.03125000 
0.15700    9200318.00000000 5789622.00000000 14595482.00000000 2773.36816406   293775.65625000 232107.53125000 
0.15800    9045417.00000000 5694475.50000000 14352639.00000000 2706.73999023   287177.93750000 226925.46875000 
0.15900    8893523.00000000 5601127.00000000 14114463.00000000 2641.71655273   280723.59375000 221852.31250000 
0.16000    8744301.00000000 5509440.00000000 13880503.00000000 2578.19213867   274402.12500000 216886.29687500 
0.16100    8597900.00000000 5419490.50000000 13651005.00000000 2516.19555664   268214.62500000 212022.73437500 
0.16200    8454086.00000000 5331129.50000000 13425497.00000000 2455.60815430   262154.59375000 207259.42187500 
0.16300    8312867.00000000 5244350.00000000 13204090.00000000 2396.42089844   256215.87500000 202592.21875000 
0.16400    8174116.50000000 5159107.00000000 12986570.00000000 2338.60253906   250397.51562500 198018.65625000 
0.16500    8037843.00000000 5075350.50000000 12772796.00000000 2282.06201172   244694.71875000 193536.00000000 
0.16600    7903927.50000000 4993042.00000000 12562837.00000000 2226.81323242   239105.17187500 189141.84375000 
0.16700    7772240.00000000 4912096.50000000 12356289.00000000 2172.78173828   233623.57812500 184831.50000000 
0.16800    7642794.00000000 4832522.00000000 12153222.00000000 2119.93139648   228247.35937500 180605.28125000 
0.16900    7515544.50000000 4754313.50000000 11953729.00000000 2068.25781250   222977.06250000 176458.70312500 
0.17000    7390377.50000000 4677340.50000000 11757370.00000000 2017.70227051   217803.60937500 172391.10937500 
0.17100    7267218.50000000 4601628.50000000 11564290.00000000 1968.22985840   212728.67187500 168397.85937500 
0.17200    7146061.50000000 4527136.50000000 11374176.00000000 1919.82666016   207746.65625000 164478.64062500 
