# SAXS profile: number of points = 501, q_min = 0, q_max = 0.5, delta_q = 0.001
#    q    intensity 
0.00000    68462728.00000000 41715028.00000000 106882136.00000000 51397.03515625  3751696.25000000 2928488.25000000 
0.00100    68446880.00000000 41705332.00000000 106857456.00000000 51383.75781250  3750777.50000000 2927774.75000000 
0.00200    68400816.00000000 41676796.00000000 106783520.00000000 51343.67968750  3747962.50000000 2925591.00000000 
0.00300    68321600.00000000 41628644.00000000 106659864.00000000 51277.42187500  3743308.50000000 2921987.25000000 
0.00400    68211368.00000000 41561716.00000000 106488640.00000000 51184.53515625  3736822.75000000 2916906.00000000 
0.00500    68069576.00000000 41475836.00000000 106267664.00000000 51065.46093750  3728466.25000000 2910412.75000000 
0.00600    67895400.00000000 41370868.00000000 105998880.00000000 50920.49609375  3718321.00000000 2902491.75000000 
0.00700    67691944.00000000 41247344.00000000 105682464.00000000 50749.69140625  3706331.00000000 2893158.75000000 
0.00800    67458304.00000000 41105888.00000000 105317128.00000000 50553.44921875  3692590.50000000 2882440.00000000 
0.00900    67195512.00000000 40946004.00000000 104906344.00000000 50332.11328125  3677063.75000000 2870359.00000000 
0.01000    66901808.00000000 40767920.00000000 104450288.00000000 50085.96093750  3659839.25000000 2856912.00000000 
0.01100    66579488.00000000 40572520.00000000 103948368.00000000 49815.74218750  3640868.25000000 2842158.00000000 
0.01200    66229032.00000000 40359916.00000000 103401736.00000000 49521.73828125  3620273.50000000 2826088.25000000 
0.01300    65850792.00000000 40130472.00000000 102812352.00000000 49204.39453125  3598009.50000000 2808755.00000000 
0.01400    65444760.00000000 39884200.00000000 102180528.00000000 48864.46875000  3574174.75000000 2790158.00000000 
0.01500    65012844.00000000 39622124.00000000 101507704.00000000 48502.19140625  3548757.25000000 2770369.25000000 
0.01600    64554812.00000000 39344348.00000000 100794360.00000000 48118.60156250  3521854.75000000 2749399.75000000 
0.01700    64072008.00000000 39051180.00000000 100041848.00000000 47714.23046875  3493467.00000000 2727281.75000000 
0.01800    63564924.00000000 38743772.00000000 99251800.00000000 47289.67578125  3463684.50000000 2704064.00000000 
0.01900    63034152.00000000 38421788.00000000 98425600.00000000 46845.98828125  3432537.75000000 2679775.00000000 
0.02000    62481364.00000000 38086328.00000000 97563504.00000000 46383.34765625  3400068.25000000 2654482.50000000 
0.02100    61906536.00000000 37737564.00000000 96668464.00000000 45903.26562500  3366321.25000000 2628198.75000000 
0.02200    61311456.00000000 37376468.00000000 95741272.00000000 45405.92578125  3331393.00000000 2600968.25000000 
0.02300    60696592.00000000 37003348.00000000 94783304.00000000 44892.56250000  3295313.00000000 2572851.25000000 
0.02400    60063244.00000000 36618964.00000000 93796456.00000000 44363.89453125  3258144.00000000 2543875.00000000 
0.02500    59411512.00000000 36223732.00000000 92781640.00000000 43820.36328125  3219965.00000000 2514108.75000000 
0.02600    58743812.00000000 35818428.00000000 91741096.00000000 43263.94140625  3180777.00000000 2483599.75000000 
0.02700    58060528.00000000 35403780.00000000 90676592.00000000 42694.29296875  3140743.25000000 2452367.00000000 
0.02800    57362268.00000000 34979968.00000000 89588576.00000000 42113.33984375  3099835.25000000 2420489.25000000 
0.02900    56650796.00000000 34548384.00000000 88479928.00000000 41521.26562500  3058165.75000000 2388005.50000000 
0.03000    55926924.00000000 34108848.00000000 87352256.00000000 40919.45703125  3015780.00000000 2354975.25000000 
0.03100    55191948.00000000 33662860.00000000 86207152.00000000 40308.55078125  2972743.75000000 2321433.50000000 
0.03200    54446836.00000000 33210546.00000000 85046064.00000000 39689.50781250  2929126.75000000 2287436.00000000 
0.03300    53692620.00000000 32752770.00000000 83870504.00000000 39063.47265625  2885022.25000000 2253057.75000000 
0.03400    52930368.00000000 32290042.00000000 82682920.00000000 38431.42187500  2840440.50000000 2218303.25000000 
0.03500    52161356.00000000 31823178.00000000 81484576.00000000 37794.06250000  2795472.75000000 2183249.50000000 
0.03600    51386552.00000000 31352824.00000000 80277296.00000000 37152.21484375  2750203.00000000 2147963.00000000 
0.03700    50607060.00000000 30879756.00000000 79062760.00000000 36507.12890625  2704660.75000000 2112459.00000000 
0.03800    49823968.00000000 30404486.00000000 77842280.00000000 35859.55078125  2658939.00000000 2076810.00000000 
0.03900    49038552.00000000 29927478.00000000 76618360.00000000 35210.31640625  2613064.50000000 2041061.25000000 
0.04000    48251324.00000000 29449712.00000000 75391976.00000000 34560.39843750  2567144.25000000 2005257.25000000 
0.04100    47463956.00000000 28971548.00000000 74164872.00000000 33910.37109375  2521211.00000000 1969439.75000000 
0.04200    46677304.00000000 28493730.00000000 72938384.00000000 33261.52734375  2475334.50000000 1933662.37500000 
0.04300    45892128.00000000 28017058.00000000 71714480.00000000 32614.48828125  2429532.25000000 1897979.37500000 
0.04400    45109432.00000000 27541794.00000000 70495072.00000000 31969.78515625  2383932.25000000 1862418.62500000 
0.04500    44330276.00000000 27068714.00000000 69280784.00000000 31328.56835938  2338550.25000000 1827028.75000000 
0.04600    43555456.00000000 26598310.00000000 68073552.00000000 30691.36328125  2293429.25000000 1791853.12500000 
0.04700    42786356.00000000 26131124.00000000 66874320.00000000 30058.99414062  2248628.25000000 1756920.50000000 
0.04800    42023116.00000000 25667552.00000000 65684828.00000000 29432.05078125  2204210.75000000 1722287.50000000 
0.04900    41266940.00000000 25208354.00000000 64506140.00000000 28811.21093750  2160211.25000000 1687984.37500000 
0.05000    40518736.00000000 24754062.00000000 63339964.00000000 28197.27734375  2116677.75000000 1654048.00000000 
0.05100    39779204.00000000 24304710.00000000 62186968.00000000 27590.54882812  2073672.12500000 1620507.62500000 
0.05200    39048464.00000000 23861146.00000000 61048436.00000000 26991.83789062  2031210.00000000 1587391.12500000 
0.05300    38328252.00000000 23423598.00000000 59925660.00000000 26401.57812500  1989334.00000000 1554743.50000000 
0.05400    37618124.00000000 22992584.00000000 58819448.00000000 25820.38476562  1948090.12500000 1522581.75000000 
0.05500    36919692.00000000 22568208.00000000 57730876.00000000 25248.53320312  1907505.25000000 1490946.37500000 
0.05600    36233168.00000000 22151312.00000000 56660684.00000000 24686.62890625  1867619.12500000 1459845.50000000 
0.05700    35558680.00000000 21741930.00000000 55609864.00000000 24135.04101562  1828464.75000000 1429304.00000000 
0.05800    34897444.00000000 21340196.00000000 54579060.00000000 23594.01953125  1790047.50000000 1399353.50000000 
0.05900    34249372.00000000 20946704.00000000 53569164.00000000 23063.85156250  1752414.25000000 1370019.25000000 
0.06000    33615028.00000000 20561632.00000000 52580740.00000000 22545.24414062  1715580.62500000 1341297.50000000 
0.06100    32995072.00000000 20185318.00000000 51614160.00000000 22037.92382812  1679566.25000000 1313214.00000000 
0.06200    32389320.00000000 19817310.00000000 50670284.00000000 21542.50585938  1644388.50000000 1285786.00000000 
0.06300    31798570.00000000 19458724.00000000 49749580.00000000 21058.90039062  1610070.00000000 1259024.75000000 
0.06400    31222518.00000000 19109128.00000000 48851476.00000000 20587.31250000  1576599.25000000 1232942.12500000 
0.06500    30661732.00000000 18768828.00000000 47978008.00000000 20128.11132812  1544016.75000000 1207531.37500000 
0.06600    30116358.00000000 18437820.00000000 47128236.00000000 19680.99609375  1512308.75000000 1182817.62500000 
0.06700    29586386.00000000 18116258.00000000 46302632.00000000 19246.56445312  1481491.62500000 1158804.25000000 
0.06800    29071836.00000000 17804336.00000000 45501192.00000000 18824.09375000  1451566.62500000 1135467.25000000 
0.06900    28573208.00000000 17501820.00000000 44724216.00000000 18414.34765625  1422536.62500000 1112850.25000000 
0.07000    28089906.00000000 17208806.00000000 43971712.00000000 18016.61914062  1394394.12500000 1090921.62500000 
0.07100    27622470.00000000 16925348.00000000 43243816.00000000 17631.35937500  1367136.87500000 1069684.50000000 
0.07200    27170222.00000000 16651335.00000000 42540016.00000000 17258.02539062  1340772.12500000 1049127.87500000 
0.07300    26733710.00000000 16386886.00000000 41860328.00000000 16897.06835938  1315281.00000000 1029265.25000000 
0.07400    26312524.00000000 16131461.00000000 41204560.00000000 16547.90039062  1290652.25000000 1010075.00000000 
0.07500    25906256.00000000 15885721.00000000 40572372.00000000 16210.25781250  1266878.12500000 991563.56250000 
0.07600    25514990.00000000 15649027.00000000 39963616.00000000 15884.28222656  1243951.75000000 973706.68750000 
0.07700    25138370.00000000 15421202.00000000 39377900.00000000 15569.71777344  1221842.75000000 956495.87500000 
0.07800    24776198.00000000 15202195.00000000 38814732.00000000 15266.15136719  1200557.37500000 939923.62500000 
0.07900    24428310.00000000 14991942.00000000 38273628.00000000 14973.48925781  1180062.87500000 923968.93750000 
0.08000    24094272.00000000 14790215.00000000 37754340.00000000 14691.33789062  1160354.00000000 908625.75000000 
0.08100    23773906.00000000 14596616.00000000 37256420.00000000 14419.39453125  1141396.12500000 893876.56250000 
0.08200    23466542.00000000 14411242.00000000 36778740.00000000 14157.56152344  1123166.37500000 879693.81250000 
0.08300    23171942.00000000 14233729.00000000 36321116.00000000 13905.25000000  1105653.75000000 866077.50000000 
0.08400    22889662.00000000 14063692.00000000 35883300.00000000 13662.29101562  1088837.00000000 852997.25000000 
0.08500    22619550.00000000 13901111.00000000 35464112.00000000 13428.39941406  1072688.00000000 840440.68750000 
0.08600    22360884.00000000 13745590.00000000 35062680.00000000 13203.17968750  1057163.00000000 828383.75000000 
0.08700    22113232.00000000 13596892.00000000 34679116.00000000 12986.22558594  1042274.43750000 816808.25000000 
0.08800    21876316.00000000 13454689.00000000 34311816.00000000 12777.12304688  1027956.25000000 805696.00000000 
0.08900    21649566.00000000 13318794.00000000 33960892.00000000 12575.63769531  1014212.00000000 795022.43750000 
0.09000    21432590.00000000 13188908.00000000 33624972.00000000 12381.35644531  1001002.12500000 784770.37500000 
0.09100    21224668.00000000 13064627.00000000 33303688.00000000 12193.94921875  988296.56250000 774910.06250000 
0.09200    21025688.00000000 12945704.00000000 32995598.00000000 12013.03222656  976069.31250000 765431.06250000 
0.09300    20834852.00000000 12831902.00000000 32700936.00000000 11838.09765625  964307.31250000 756309.75000000 
0.09400    20651684.00000000 12722731.00000000 32418176.00000000 11668.95898438  952955.56250000 747518.12500000 
0.09500    20475676.00000000 12618121.00000000 32146870.00000000 11505.11718750  942009.18750000 739034.25000000 
0.09600    20306506.00000000 12517678.00000000 31886052.00000000 11346.37109375  931424.31250000 730842.43750000 
0.09700    20143682.00000000 12421042.00000000 31635132.00000000 11192.22363281  921200.06250000 722922.06250000 
0.09800    19986406.00000000 12327975.00000000 31393134.00000000 11042.48730469  911282.00000000 715252.18750000 
0.09900    19834498.00000000 12238171.00000000 31159406.00000000 10896.65136719  901664.12500000 707805.31250000 
0.10000    19687270.00000000 12151340.00000000 30933064.00000000 10754.44824219  892301.68750000 700568.00000000 
0.10100    19544374.00000000 12067011.00000000 30713662.00000000 10615.59667969  883176.75000000 693518.00000000 
0.10200    19405498.00000000 11985285.00000000 30500340.00000000 10479.75097656  874273.25000000 686641.31250000 
0.10300    19269812.00000000 11905451.00000000 30292302.00000000 10346.64257812  865558.56250000 679902.87500000 
0.10400    19137070.00000000 11827528.00000000 30088708.00000000 10215.92480469  857015.25000000 673298.87500000 
0.10500    19007142.00000000 11751157.00000000 29889334.00000000 10087.28125000  848617.00000000 666813.12500000 
0.10600    18878934.00000000 11675994.00000000 29693020.00000000 9960.62890625   840335.43750000 660421.00000000 
0.10700    18752620.00000000 11601896.00000000 29499408.00000000 9835.56445312   832159.12500000 654110.50000000 
0.10800    18627268.00000000 11528619.00000000 29307658.00000000 9711.87011719   824070.12500000 647860.75000000 
0.10900    18503104.00000000 11455879.00000000 29117478.00000000 9589.29589844   816042.18750000 641662.93750000 
0.11000    18379416.00000000 11383533.00000000 28928216.00000000 9467.76855469   808065.87500000 635503.93750000 
0.11100    18256044.00000000 11311197.00000000 28739010.00000000 9346.99023438   800114.12500000 629362.06250000 
0.11200    18132326.00000000 11238896.00000000 28549908.00000000 9226.69726562   792177.87500000 623231.62500000 
0.11300    18008254.00000000 11166289.00000000 28360020.00000000 9106.93359375   784243.56250000 617101.75000000 
0.11400    17883514.00000000 11093155.00000000 28168962.00000000 8987.35546875   776296.18750000 610957.68750000 
0.11500    17757960.00000000 11019490.00000000 27976294.00000000 8867.96777344   768319.25000000 604791.37500000 
0.11600    17631052.00000000 10944992.00000000 27781832.00000000 8748.66699219   760305.18750000 598596.68750000 
0.11700    17502546.00000000 10869593.00000000 27584910.00000000 8629.07128906   752242.31250000 592359.25000000 
0.11800    17372510.00000000 10793156.00000000 27385440.00000000 8509.37304688   744123.00000000 586076.68750000 
0.11900    17240562.00000000 10715517.00000000 27182806.00000000 8389.40234375   735933.62500000 579733.81250000 
0.12000    17106598.00000000 10636554.00000000 26977174.00000000 8269.06933594   727672.00000000 573335.75000000 
0.12100    16970448.00000000 10556285.00000000 26768006.00000000 8148.36474609   719333.31250000 566873.25000000 
0.12200    16831918.00000000 10474477.00000000 26554988.00000000 8027.23828125   710911.25000000 560342.12500000 
0.12300    16691033.00000000 10391151.00000000 26338074.00000000 7905.62255859   702397.75000000 553743.62500000 
0.12400    16547661.00000000 10306205.00000000 26117292.00000000 7783.51757812   693800.75000000 547063.87500000 
0.12500    16401546.00000000 10219586.00000000 25892272.00000000 7660.93310547   685100.06250000 540312.18750000 
0.12600    16252826.00000000 10131278.00000000 25663038.00000000 7537.88281250   676310.12500000 533487.00000000 
0.12700    16101392.00000000 10041207.00000000 25429388.00000000 7414.34960938   667426.93750000 526577.62500000 
0.12800    15947224.00000000 9949436.00000000 25191338.00000000 7290.39111328   658444.56250000 519593.75000000 
0.12900    15790332.00000000 9855859.00000000 24948772.00000000 7166.10009766   649369.43750000 512532.25000000 
0.13000    15630599.00000000 9760527.00000000 24701958.00000000 7041.39892578   640207.12500000 505399.43750000 
0.13100    15468286.00000000 9663437.00000000 24450870.00000000 6916.39062500   630955.56250000 498191.71875000 
0.13200    15303183.00000000 9564602.00000000 24195302.00000000 6791.18896484   621617.62500000 490918.84375000 
0.13300    15135499.00000000 9464086.00000000 23935612.00000000 6665.77880859   612203.06250000 483576.53125000 
0.13400    14965326.00000000 9361944.00000000 23671752.00000000 6540.29931641   602715.43750000 476172.96875000 
0.13500    14792579.00000000 9258145.00000000 23403966.00000000 6414.78466797   593146.37500000 468707.81250000 
0.13600    14617493.00000000 9152723.00000000 23132254.00000000 6289.36718750   583525.81250000 461192.25000000 
0.13700    14440146.00000000 9045925.00000000 22856740.00000000 6164.06201172   573840.00000000 453628.06250000 
0.13800    14260549.00000000 8937592.00000000 22577754.00000000 6039.00195312   564108.18750000 446019.53125000 
0.13900    14078901.00000000 8827933.00000000 22295446.00000000 5914.29833984   554332.06250000 438373.15625000 
0.14000    13895397.00000000 8716986.00000000 22009976.00000000 5790.03857422   544518.00000000 430697.25000000 
0.14100    13710120.00000000 8604822.00000000 21721658.00000000 5666.27587891   534677.18750000 422995.34375000 
0.14200    13523189.00000000 8491562.00000000 21430610.00000000 5543.16015625   524817.68750000 415272.75000000 
0.14300    13334787.00000000 8377236.00000000 21136968.00000000 5420.79687500   514948.37500000 407538.71875000 
0.14400    13145058.00000000 8261989.50000000 20841138.00000000 5299.19921875   505072.09375000 399797.03125000 
0.14500    12954167.00000000 8145961.50000000 20543300.00000000 5178.57470703   495203.71875000 392058.00000000 
0.14600    12762265.00000000 8029186.50000000 20243940.00000000 5058.93994141   485348.71875000 384325.31250000 
0.14700    12569592.00000000 7911822.50000000 19943038.00000000 4940.46044922   475514.96875000 376610.71875000 
0.14800    12376209.00000000 7793873.50000000 19640974.00000000 4823.11425781   465714.90625000 368910.15625000 
0.14900    12182385.00000000 7675557.00000000 19338098.00000000 4707.12451172   455951.25000000 361241.06250000 
0.15000    11988228.00000000 7556943.50000000 19034646.00000000 4592.51269531   446238.40625000 353604.81250000 
0.15100    11793998.00000000 7438171.50000000 18730566.00000000 4479.37402344   436579.37500000 346010.21875000 
0.15200    11599791.00000000 7319279.00000000 18426736.00000000 4367.77294922   426988.37500000 338466.84375000 
0.15300    11405842.00000000 7200393.00000000 18123038.00000000 4257.83203125   417467.34375000 330974.34375000 
0.15400    11212227.00000000 7081723.50000000 17819624.00000000 4149.53808594   408026.84375000 323540.31250000 
0.15500    11019234.00000000 6963216.50000000 17517146.00000000 4042.99829102   398675.53125000 316174.81250000 
0.15600    10826938.00000000 6845089.00000000 17215696.00000000 3938.34106445   389415.78125000 308879.71875000 
0.15700    10635556.00000000 6727399.50000000 16915548.00000000 3835.53466797   380261.50000000 301663.65625000 
0.15800    10445255.00000000 6610239.50000000 16616708.00000000 3734.66113281   371212.75000000 294525.21875000 
0.15900    10256107.00000000 6493721.50000000 16319867.00000000 3635.77294922   362280.12500000 287477.43750000 
0.16000    10068324.00000000 6377975.00000000 16024890.00000000 3538.92724609   353464.87500000 280522.18750000 
0.16100    9882163.00000000 6263049.50000000 15732282.00000000 3444.14111328   344780.50000000 273664.03125000 
0.16200    9697529.00000000 6149049.50000000 15442127.00000000 3351.44702148   336224.53125000 266903.43750000 
0.16300    9514757.00000000 6036061.00000000 15154607.00000000 3260.86718750   327803.37500000 260251.25000000 
0.16400    9333797.00000000 5924131.50000000 14869966.00000000 3172.45361328   319525.56250000 253705.50000000 
0.16500    9154873.00000000 5813367.00000000 14588427.00000000 3086.16577148   311389.90625000 247270.50000000 
0.16600    8978098.00000000 5703861.00000000 14310010.00000000 3002.04907227   303401.09375000 240951.32812500 
0.16700    8803597.00000000 5595622.00000000 14035017.00000000 2920.09741211   295562.06250000 234747.89062500 
0.16800    8631353.00000000 5488745.50000000 13763714.00000000 2840.31665039   287878.25000000 228662.23437500 
0.16900    8461578.00000000 5383343.00000000 13496054.00000000 2762.71899414   280349.71875000 222700.03125000 
0.17000    8294269.50000000 5279375.00000000 13232270.00000000 2687.27416992   272976.28125000 216857.93750000 
0.17100    8129556.00000000 5176928.00000000 12972440.00000000 2613.97412109   265765.25000000 211140.81250000 
0.17200    7967516.00000000 5076056.00000000 12716707.00000000 2542.78540039   258713.35937500 205548.03125000 
